wavelength,energy,fit,1st der,2nd der
470.0,2.6383,0.9215621175049973,-0.01055686114780934,-0.003192665470991097
475.0,2.61053,0.9095820467343575,-0.013239615491077807,-0.0022099813560450213
480.0,2.58333,0.8953750957338152,-0.015044451641446476,-0.0014303743187283422
485.0,2.5567,0.8797238635233605,-0.016156020650756952,-0.0008179106087755194
490.0,2.53061,0.8632433711650429,-0.016725696865145426,-0.0003418740313375266
495.0,2.50505,0.8464118245816821,-0.016876512444264885,2.3793602766138903e-05
500.0,2.48,0.8295967161614343,-0.01670755168729956,0.00030101352509665164
505.0,2.45545,0.8130767863019555,-0.016297843033325557,0.0005080538242357665
510.0,2.43137,0.7970603288144922,-0.01570978533528232,0.0006599772953059563
515.0,2.40777,0.7817002881431102,-0.014992143738529836,0.000769054592660278
520.0,2.38462,0.7671065616574422,-0.014182649226677158,0.000845143954031484
525.0,2.3619,0.7533558868487936,-0.013310234629078252,0.0008960387644298897
530.0,2.33962,0.7404996610991974,-0.012396938616101628,0.0009277842280795011
535.0,2.31776,0.7285700108010413,-0.011459507939990685,0.0009449644166819138
540.0,2.2963,0.7175843969812257,-0.010510726910842445,0.0009509609622975058
545.0,2.27523,0.7075490162284206,-0.009560501828942363,0.0009481846631334144
550.0,2.25455,0.698461228634905,-0.008616726826403851,0.0009382812705277942
555.0,2.23423,0.6903112186456593,-0.00768595630277143,0.0009223127254199518
560.0,2.21429,0.6830830701568729,-0.006773907870956933,0.0009009151125957261
565.0,2.19469,0.6767554139238058,-0.0058858184615885045,0.0008744346009977393
570.0,2.17544,0.6713017833240016,-0.00502667496556336,0.0008430426383899928
575.0,2.15652,0.6666907937762101,-0.004201339526304184,0.0008068316686663207
580.0,2.13793,0.6628862416380141,-0.0034145883249320948,0.000765892640092154
585.0,2.11966,0.6598472001961038,-0.00267108143327615,0.000720375572769202
590.0,2.10169,0.6575281734223364,-0.001975280041353668,0.0006705344536125702
595.0,2.08403,0.6558793524962696,-0.0013313260976629115,0.0006167577271295479
600.0,2.06667,0.654847005690621,-0.0007428981323415202,0.0005595856502901577
605.0,2.04959,0.6543740190802252,-0.0002130557649565306,0.0004997157797782419
610.0,2.03279,0.6544005936674266,0.00025591586960426425,0.00043799785991319217
615.0,2.01626,0.6548650939175221,0.0006626518119475962,0.00037541937953153347
620.0,2.0,0.6557050333668194,0.0010068343888100396,0.0003130830661181275
625.0,1.984,0.6568581749031518,0.001289294314899523,0.00025217758547579254
630.0,1.96825,0.6582637165241796,0.0015120796256325678,0.0001939427152241606
635.0,1.95276,0.6598635278526961,0.0016784875487359345,0.0001396302604158568
640.0,1.9375,0.6616033984302334,0.001793055690980738,9.046197956044796e-05
645.0,1.92248,0.6634233559263264,0.0018615100714958243,4.809597041662789e-05
650.0,1.90769,0.6660684217539564,0.0015296921649007576,-3.919997857345774e-05
655.0,1.89313,0.667046260710505,0.00171184294800446,1.229751143018822e-07
660.0,1.87879,0.669046834032983,0.0015745285728094257,-2.52925710238242e-05
665.0,1.86466,0.6710010253384341,0.0014289384400209743,-3.930832036321501e-05
670.0,1.85075,0.6721623355825872,0.0015436696497826766,8.22189903458277e-06
675.0,1.83704,0.6734486755513274,0.001678948643780267,5.143105476802817e-05
680.0,1.82353,0.6752795165427214,0.0016753081452227413,6.239572918355672e-05
685.0,1.81022,0.6771499453806868,0.0016855604552696276,7.797255596877811e-05
690.0,1.7971,0.6787430798266894,0.0018443292792877032,0.00012011784557025394
695.0,1.78417,0.6808145989176613,0.0019323206110343897,0.000136322205708507
700.0,1.77143,0.6827904676142177,0.002129815007893491,0.00016764892060824036
705.0,1.75887,0.6850205733168173,0.0023355359818122675,0.0001898173302312384
710.0,1.74648,0.6874798287287878,0.00256984290638869,0.00020532916142292995
715.0,1.73427,0.6899726075402126,0.0028716015313266603,0.0002281719198915985
720.0,1.72222,0.6929788787571151,0.003099939840435792,0.00022544330783825465
725.0,1.71034,0.6963182437667418,0.003278571977761746,0.00021096752798814827
730.0,1.69863,0.6997452182520043,0.003463527556392102,0.0002022835558628391
735.0,1.68707,0.703054418232593,0.0037493212242129866,0.00021313798012695162
740.0,1.67568,0.7069118647442024,0.003931870066410185,0.0001968344933458272
745.0,1.66443,0.7110759582401756,0.0040388330141957075,0.00017118195300903287
750.0,1.65333,0.7153746910653312,0.004145844556153903,0.00014810319010033588
755.0,1.64238,0.7196235064168836,0.004305302333175866,0.00013953185032911504
760.0,1.63158,0.7238891864504446,0.0044962989609665695,0.0001397181898435302
765.0,1.62092,0.7284027864926403,0.0046311643566543,0.0001321943073405202
770.0,1.61039,0.732911905966402,0.004811613811905277,0.0001343405898237675
775.0,1.6,0.7377546745366833,0.0048869016971985505,0.00012238763925560462
780.0,1.58974,0.7426080056753207,0.004985481739205596,0.00011903075287779256
785.0,1.57962,0.7476429048238661,0.005075577210438132,0.0001116230103458265
790.0,1.56962,0.752731890610802,0.005185390063185193,0.00010847136651051406
795.0,1.55975,0.7578906035755488,0.00533532890144584,0.00010753478351183907
800.0,1.55,0.7633276472614738,0.0053945350842439874,9.39015433137626e-05
805.0,1.54037,0.7689077865096622,0.005412702932845506,7.714075086953475e-05
810.0,1.53086,0.7743678917173809,0.005488701093520527,7.476870879319993e-05
815.0,1.52147,0.7803266334180942,0.005419856945541277,4.301489512299804e-05
820.0,1.5122,0.7858933055188264,0.005495414132188084,4.336050582889146e-05
825.0,1.50303,0.7913400600343415,0.005656540570147962,5.442532523461965e-05
830.0,1.49398,0.7968724688710355,0.005809318274731946,6.078122279593918e-05
835.0,1.48503,0.8028527235445263,0.005813095102381689,3.7419152036178205e-05
840.0,1.47619,0.8086687250799787,0.005903735719404649,2.6838973094721775e-05
845.0,1.46746,0.8143954695238471,0.0060187060308711585,2.223327353039384e-05
850.0,1.45882,0.8203624668604523,0.006036557780507423,1.9276110864858672e-07
855.0,1.45029,0.8262950866852236,0.006003267247591579,-1.9916133618013386e-05
860.0,1.44186,0.8323115370922317,0.005941729136611911,-4.682759707857066e-05
865.0,1.43353,0.838202711555838,0.005893557754612524,-6.672635772420494e-05
870.0,1.42529,0.843871216372149,0.005852008382093463,-7.370903358232359e-05
875.0,1.41714,0.8497669175255477,0.005691764555374568,-9.92869439733381e-05
880.0,1.40909,0.8554237893168759,0.0055239902415426066,-0.00011060159816169725
885.0,1.40113,0.8608221808858635,0.005405205879008739,-0.00010701692470976675
890.0,1.39326,0.8661706571318465,0.005242970681831799,-0.0001033912158331634
895.0,1.38547,0.8713957430443271,0.005129380841086984,-9.462206225596779e-05
900.0,1.37778,0.8765410434068631,0.0050388335018877765,-8.413309544963514e-05
905.0,1.37017,0.8814964112367994,0.004999452938041972,-6.442732343539819e-05
910.0,1.36264,0.8865355003753402,0.004897415597565109,-5.4291844585227695e-05
915.0,1.35519,0.8913590009358702,0.004841349415019736,-3.225146870736368e-05
920.0,1.34783,0.8962593119194148,0.004805550966813047,-1.888528957012933e-05
925.0,1.34054,0.9011389040075087,0.004818489912635577,-7.514831601623958e-06
930.0,1.33333,0.9059921569418765,0.004835314346222874,2.056647853496661e-06
935.0,1.3262,0.9108261809353831,0.004810103457159661,9.596287245017818e-06
940.0,1.31915,0.915566875778906,0.004821838671961493,2.0234007685803867e-05
945.0,1.31217,0.9204543827998827,0.004862705442274339,1.6405138241481728e-05
950.0,1.30526,0.9254559904031289,0.004923981333083924,-5.343259402250649e-07
955.0,1.29843,0.9304728818245956,0.004979223578630427,-2.4723459452717612e-05
960.0,1.29167,0.9354700863236607,0.004985085949561869,-5.459022632112035e-05
965.0,1.28497,0.9404047514961016,0.004922138539037693,-8.778424834374594e-05
970.0,1.27835,0.945231356769108,0.004854952122927947,-0.0001221763503713469
975.0,1.27179,0.9500318620236787,0.004751792443553341,-0.00016488623547063566
980.0,1.26531,0.954658298410944,0.004582588703070596,-0.00020656609943307775
985.0,1.25888,0.9590175470019682,0.004337892992838294,-0.00024140259221793657
990.0,1.25253,0.9630596271556972,0.004038323944354329,-0.0002664745124181914
995.0,1.24623,0.9667798956044366,0.0037056361617600103,-0.00028203505941453355
1000.0,1.24,0.9701486915689801,0.0033608377112542675,-0.0002865456734284923
1005.0,1.23383,0.9733363628283224,0.003026987624174083,-0.0002925160150100102
1010.0,1.22772,0.9762301818854735,0.0027046751385278118,-0.00029254357825825316
1015.0,1.22167,0.9788194434963253,0.002379618540844551,-0.0002860713125064987
1020.0,1.21569,0.9811484885799628,0.002073989954205134,-0.0002761971107032536
1025.0,1.20976,0.9832409613262255,0.0017906738006808745,-0.00026450975425021807
1030.0,1.20388,0.9850280646886641,0.0015297586482672446,-0.0002459234726412167
1035.0,1.19807,0.9865351195633791,0.0012974608618297172,-0.00022176195452899475
1040.0,1.19231,0.9877633862465458,0.001088313494988551,-0.00019143025458009125
1045.0,1.1866,0.9887280783199777,0.0009021195935850746,-0.0001550701828768926
1050.0,1.18095,0.9896069026264233,0.000783927128801432,-0.00012440244491738036
1055.0,1.17536,0.9904181003076077,0.0007171970390113477,-0.00010018230725710272
1060.0,1.16981,0.9911892973472851,0.0006756039645491006,-8.368204794568932e-05
1065.0,1.16432,0.9918923832215248,0.0006551925677324628,-7.221784778321398e-05
1070.0,1.15888,0.9924985243487705,0.000615028507400178,-6.289537707053548e-05
1075.0,1.15349,0.9930042299649675,0.0005656409502215382,-5.450228719151894e-05
1080.0,1.14815,0.9934187442069553,0.0005186416516772025,-4.695621820057037e-05
1085.0,1.14286,0.993827877542885,0.00047901142932254767,-4.578694147547627e-05
1090.0,1.13761,0.9942473136588231,0.00044580556416530265,-5.182818833407177e-05
1095.0,1.13242,0.9945959441905907,0.0004081844811210946,-5.924591409169804e-05
1100.0,1.12727,0.9949023839172396,0.0003379529806536979,-6.97981019384621e-05
1105.0,1.12217,0.9950848032150069,0.00022449414373546276,-7.733795690884358e-05
1110.0,1.11712,0.9951847294253837,9.210632821934949e-05,-8.452163907579592e-05
1115.0,1.11211,0.9952525820126953,-3.086378851372166e-05,-9.504173193481752e-05
1120.0,1.10714,0.9952483117939543,-0.00016486127628915787,-0.00010639436888822151
1125.0,1.10222,0.9951059415048599,-0.000275742955554964,-0.0001143939229676252
1130.0,1.09735,0.9948478076052201,-0.00038642589774637564,-0.00012110018038158371
1135.0,1.09251,0.9943864988185213,-0.000529455213677059,-0.00012043647511504531
1140.0,1.08772,0.9938011878381955,-0.0006718654556918382,-0.0001179110819219645
1145.0,1.08297,0.9931371134198123,-0.0008192271556728367,-0.0001167671471748855
1150.0,1.07826,0.9923697272974136,-0.0009222812176868135,-0.00011562720599317714
1155.0,1.07359,0.9915138621127285,-0.0010035583974262407,-0.00011604261200693218
1160.0,1.06897,0.990520065507778,-0.0010821771970996462,-0.0001147520803033695
1165.0,1.06438,0.9894031142841869,-0.0011553979574279358,-0.00011283060479255053
1170.0,1.05983,0.9881308047771302,-0.0012509802108403314,-0.0001078114043672049
1175.0,1.05532,0.9866730275216019,-0.0013752114476195199,-9.705203457346852e-05
1180.0,1.05085,0.9850931724858993,-0.0014773287337601897,-8.46591698709398e-05
1185.0,1.04641,0.9834921477793688,-0.0015440110491684476,-7.777186244300056e-05
1190.0,1.04202,0.9818881708151507,-0.0016321369506537798,-7.754369398990776e-05
1195.0,1.03766,0.9802857330040738,-0.0016948428610108683,-8.425201758801909e-05
1200.0,1.03333,0.9785638478033125,-0.0017687777267720332,-8.95482507866768e-05
1205.0,1.02905,0.9766579956535594,-0.001855546768649996,-8.879650354770173e-05
1210.0,1.02479,0.9748252358660148,-0.0019477858250511629,-9.995999434022376e-05
1215.0,1.02058,0.972865312716728,-0.0020800694476839415,-0.000108821246505177
1220.0,1.01639,0.9707134764883698,-0.002232607501237533,-0.00011058729326383427
1225.0,1.01224,0.9684025993968196,-0.0024035580980438665,-0.00010735830538080896
1230.0,1.00813,0.9660190370769773,-0.0025246444329803863,-0.00010537568118178632
1235.0,1.00405,0.9635170511361602,-0.002632609417789261,-0.00010180383547145257
1240.0,1.0,0.960915789455136,-0.002686777437331644,-9.836766494059285e-05
1245.0,0.99598,0.9582434529572118,-0.0027536543352880026,-9.7236620949907e-05
1250.0,0.992,0.9554179869494065,-0.0028377708705614206,-9.235252711182101e-05
1255.0,0.98805,0.9525099602885199,-0.0029096187137344497,-8.847237231293106e-05
1260.0,0.98413,0.949440951335593,-0.0029707056062329017,-8.001714555327645e-05
1265.0,0.98024,0.9462730384123583,-0.0030317894775880303,-7.111917022994361e-05
1270.0,0.97638,0.9431235653771648,-0.0031258131337450457,-6.950265678320403e-05
1275.0,0.97255,0.9400630745257228,-0.0032270256041120604,-7.9699776402202e-05
1280.0,0.96875,0.9369604158406559,-0.003317248761712871,-9.255738649498353e-05
1285.0,0.96498,0.9336682755931758,-0.0033847427351602418,-9.802488895336897e-05
1290.0,0.96124,0.930214809395098,-0.003457965433398289,-9.812968363919579e-05
1295.0,0.95753,0.9266784410594081,-0.0035614391367554824,-9.793468958568005e-05
1300.0,0.95385,0.9230273612764002,-0.0036915871439551383,-9.453308793556302e-05
1305.0,0.95019,0.9192479534815275,-0.003813864431150531,-8.644337223591463e-05
1310.0,0.94656,0.9153159419731406,-0.0039012170706658866,-7.170342158780107e-05
1315.0,0.94297,0.9112536491431669,-0.0039490810117916945,-5.167308953780311e-05
1320.0,0.93939,0.9072434988592508,-0.003988863042097239,-3.869062878802723e-05
1325.0,0.93585,0.9033217323142613,-0.00403496589769041,-3.4612205526957026e-05
1330.0,0.93233,0.8993736566673898,-0.0040839375961171775,-3.075689908824743e-05
1335.0,0.92884,0.8953378721875208,-0.004133225211588247,-2.2253728076142797e-05
1340.0,0.92537,0.8912249955177778,-0.004168918259846366,-9.336667375976266e-06
1345.0,0.92193,0.887061810774791,-0.004173623235424098,6.487207880921279e-06
1350.0,0.91852,0.8828840346838757,-0.00413719929418073,2.293737862820667e-05
1355.0,0.91513,0.8787726100411765,-0.004101685971232283,3.473287040632513e-05
1360.0,0.91176,0.8746363172643,-0.0040556466778359,4.879913588515247e-05
1365.0,0.90842,0.8705752108286617,-0.003973527486537955,5.832605116784558e-05
1370.0,0.90511,0.8666474070232354,-0.0038925117235909454,5.9384181255563373e-05
1375.0,0.90182,0.8628434567584592,-0.003830619620511957,5.292805976070771e-05
1380.0,0.89855,0.8590971721605188,-0.003787058986927318,4.380245053129075e-05
1385.0,0.89531,0.8554000593240415,-0.003756421895374868,3.2618787817173983e-05
1390.0,0.89209,0.8516523180492205,-0.0037229576657163647,2.6189967598204308e-05
1395.0,0.88889,0.8478463524725464,-0.0036715660956258083,2.468190278059139e-05
1400.0,0.88571,0.8441333566770993,-0.0036384660073498624,1.7273810871220127e-05
1405.0,0.88256,0.840459907426762,-0.003625623015429154,7.687724238683818e-06
1410.0,0.87943,0.8368313186232871,-0.003636438068707468,-4.520506451849687e-06
1415.0,0.87633,0.8332233983778831,-0.0036704471072636514,-1.7758339053795146e-05
1420.0,0.87324,0.8295475135008418,-0.0037000973505935853,-2.609060939084409e-05
1425.0,0.87018,0.8257817243674431,-0.00373048000858536,-2.8315018975057693e-05
1430.0,0.86713,0.8219527448435235,-0.003755382185436926,-2.651082925914772e-05
1435.0,0.86411,0.818113854282514,-0.0037933410115044562,-2.443008945015069e-05
1440.0,0.86111,0.8143284292703677,-0.0038394680716773745,-2.6409260652756754e-05
1445.0,0.85813,0.8105509072740295,-0.0038855447361290218,-2.9242553526049637e-05
1450.0,0.85517,0.8067147686921491,-0.003931536839743554,-2.829197825748899e-05
1455.0,0.85223,0.8027440257674227,-0.00395765805266754,-1.8272122686895857e-05
1460.0,0.84932,0.7987213747611576,-0.003973254960461371,-4.938839647774607e-06
1465.0,0.84642,0.794788260521128,-0.003974335732715878,1.9369370649339654e-06
1470.0,0.84354,0.7909035391393788,-0.003960110139106363,5.3151968538714595e-06
1475.0,0.84068,0.7870661832913676,-0.003961148758716432,5.45551865302528e-06
1480.0,0.83784,0.783198109527862,-0.003969000169296959,8.132084982995734e-06
1485.0,0.83502,0.7792289627096746,-0.003937029463773586,1.8269758546541156e-05
1490.0,0.83221,0.7752568184445426,-0.0038808504270618034,2.8869163934571048e-05
1495.0,0.82943,0.7713042971883293,-0.003800159438726003,3.836998769923914e-05
1500.0,0.82667,0.7674587562419782,-0.003729861094036704,4.0852915018066926e-05
1505.0,0.82392,0.7637122124092026,-0.003678570414780362,3.725622111553029e-05
1510.0,0.82119,0.7600379607029558,-0.0036528965616896424,2.9793687972417253e-05
1515.0,0.81848,0.7564763610040698,-0.0036514967543123124,1.587326398919421e-05
1520.0,0.81579,0.7528300195533574,-0.0036705376824830256,9.473751729438675e-06
1525.0,0.81311,0.7491756731113351,-0.003663482573012233,5.332938167201947e-06
1530.0,0.81046,0.7455143611371704,-0.003659599827548794,2.5853322967810642e-06
1535.0,0.80782,0.7418557180490228,-0.003657978008329249,8.37538611010236e-07
1540.0,0.80519,0.7381980068403399,-0.0036575477389024554,2.1866803029911824e-07
1545.0,0.80259,0.7345406141609158,-0.0036571416057640744,7.947273738947644e-07
1550.0,0.8,0.7308841159290542,-0.003655559796098233,2.5638956357605658e-06
1555.0,0.79743,0.7272302752978104,-0.003651639388089573,5.453983050319089e-06
1560.0,0.79487,0.7235819704546012,-0.003644324989567323,9.322315846770372e-06
1565.0,0.79233,0.7199430521592088,-0.003632738177842729,1.39582895911912e-05
1570.0,0.78981,0.7163181335937343,-0.003616242950702315,1.9088834014988586e-05
1575.0,0.7873,0.712712318009581,-0.003594504155621802,2.4387032228905263e-05
1580.0,0.78481,0.7091308728109345,-0.0035675356213659285,2.9484137221340388e-05
1585.0,0.78233,0.7055788621114587,-0.00353573447323875,3.3985228539798245e-05
1590.0,0.77987,0.7020607534411449,-0.0034998978703537896,3.7488752054687315e-05
1595.0,0.77743,0.6985800181633146,-0.0034612181603920103,3.961018570396266e-05
1600.0,0.775,0.6951387492877714,-0.003421252204414921,4.0010074117915735e-05
1605.0,0.77259,0.6917373247349385,-0.003381860381407151,3.8426675022724716e-05
1610.0,0.77019,0.6883741487176792,-0.003345110539316541,3.471346032176499e-05
1615.0,0.7678,0.6850455087620682,-0.0033131419164667475,2.8881714753602682e-05
1620.0,0.76543,0.6817455909860356,-0.0032879838143167824,2.1148475025862742e-05
1625.0,0.76308,0.6784667015953002,-0.003271323559637527,1.1990052323028206e-05
1630.0,0.76074,0.6751997481392348,-0.00326421805128977,2.2013810880405337e-06
1635.0,0.75841,0.6719350398958335,-0.0032667429438745796,-7.038563023700046e-06
1640.0,0.7561,0.668663472823821,-0.0032775732776322277,-1.409503311952426e-05
1645.0,0.7538,0.6653781708323188,-0.003293489121076432,-1.6799226074037704e-05
1650.0,0.75152,0.6620766616731576,-0.003308799549943983,-1.2363199665342897e-05
1655.0,0.74924,0.6587636725590968,-0.003314678043124891,2.7122510573964267e-06
1660.0,0.74699,0.6554546376516563,-0.003298402133386888,3.273700107293419e-05
1665.0,0.74474,0.6521800168463128,-0.003242489907739764,8.293852925256415e-05
1670.0,0.74251,0.648990532808869,-0.0031237257094638505,0.00015957662168935205
1675.0,0.7403,0.6459634409869248,-0.0029120671508529672,0.0002700660873913212
1680.0,0.7381,0.6432099553321194,-0.0025694253028827087,0.0004231077292368244
1685.0,0.73591,0.6408839607243398,-0.002048309685084017,0.0006288278130912742
1690.0,0.73373,0.6391921515875373,-0.0012903294360074157,0.0008989262779839121
1695.0,0.73156,0.6384057449271228,-0.00022454180177947178,0.0012468339302446933
