wavelength,energy,-2_absorption,-4_absorption,0_absorption,2_absorption,4_absorption,-2_abs_diff,-4_abs_diff,0_abs_diff,2_abs_diff,4_abs_diff
400.0,3.1,0.7822278603189805,0.7920213359839694,0.789476510708742,0.7804637500078213,0.7982307949326746,-0.007248650389761524,0.0025448252752273692,0.0,-0.009012760700920719,0.00875428422393254
404.0,3.0693069306930694,0.7793820593328258,0.7894187050196708,0.7875333495891272,0.7774967048407542,0.7720901675352398,-0.008151290256301458,0.0018853554305435782,0.0,-0.01003664474837307,-0.015443182053887394
408.0,3.0392156862745097,0.7747153438862562,0.7841201308245933,0.78248343697057,0.7743742425068985,0.7664921150254231,-0.00776809308431381,0.001636693854023319,0.0,-0.008109194463671532,-0.015991321945146852
412.0,3.0097087378640777,0.7710727832211948,0.7796917690367602,0.7774041222620982,0.7698428451640422,0.7617277861803433,-0.006331339040903439,0.0022876467746619777,0.0,-0.007561277098055985,-0.015676336081754894
416.0,2.980769230769231,0.7664940893712597,0.7760156423294164,0.7731816106434239,0.7654660413404801,0.7585462595044812,-0.00668752127216421,0.0028340316859924997,0.0,-0.007715569302943814,-0.014635351138942765
420.0,2.9523809523809526,0.7636810833046939,0.7731467450030067,0.7701765730684436,0.7618316419982871,0.7553158829024089,-0.0064954897637496956,0.0029701719345631705,0.0,-0.008344931070156436,-0.01486069016603464
424.0,2.9245283018867925,0.7620174442736869,0.7707717722575049,0.7676564522171387,0.7599840028492171,0.7534522882016774,-0.005639007943451846,0.0031153200403661874,0.0,-0.007672449367921663,-0.014204164015461318
428.0,2.897196261682243,0.7607455550612336,0.7695555492446591,0.7664917788702588,0.7589116432259622,0.7521185959234276,-0.005746223809025119,0.0030637703744003097,0.0,-0.007580135644296604,-0.014373182946831209
432.0,2.8703703703703702,0.760376390814715,0.7688429903452192,0.7662965070241621,0.7580112503577989,0.7517001706893862,-0.005920116209447102,0.0025464833210571136,0.0,-0.00828525666636315,-0.014596336334775861
436.0,2.8440366972477062,0.7602062466172701,0.7687565139715342,0.7662598188757059,0.7574309574475913,0.751302584328257,-0.006053572258435835,0.002496695095828283,0.0,-0.008828861428114676,-0.014957234547448905
440.0,2.8181818181818183,0.7608680705100823,0.7690348020084554,0.7664006922178486,0.7578652912982395,0.7512671474423569,-0.00553262170776625,0.0026341097906068534,0.0,-0.008535400919609026,-0.01513354477549167
444.0,2.7927927927927927,0.7625456867140505,0.7704818827519466,0.7681763601358222,0.760255101285614,0.7527092747645316,-0.005630673421771704,0.002305522616124378,0.0,-0.007921258850208224,-0.015467085371290601
448.0,2.767857142857143,0.7651082399910665,0.7726638995469681,0.7702903888250894,0.7624298763193804,0.7544027237043223,-0.005182148834022904,0.0023735107218787466,0.0,-0.007860512505708961,-0.015887665120767114
452.0,2.743362831858407,0.7654108204208319,0.7725603462094952,0.7709528173178608,0.7623053907697022,0.7542296679226412,-0.005541996897028945,0.0016075288916344022,0.0,-0.008647426548158643,-0.016723149395219572
456.0,2.719298245614035,0.7641057270575873,0.7706295648065566,0.7696243960168643,0.7605065538382314,0.7528704914882207,-0.0055186689592769955,0.0010051687896923678,0.0,-0.009117842178632873,-0.01675390452864356
460.0,2.6956521739130435,0.7614814698688632,0.767694516475032,0.7672253864890186,0.7567663469551162,0.7497224253728987,-0.005743916620155387,0.0004691299860133391,0.0,-0.01045903953390237,-0.01750296111611993
464.0,2.6724137931034484,0.7587175515880429,0.765265918799497,0.7646420148788737,0.7538842930807301,0.7466583320735474,-0.00592446329083085,0.000623903920623281,0.0,-0.010757721798143605,-0.017983682805326362
468.0,2.6495726495726495,0.7562082312501259,0.7622788051481262,0.762170592435419,0.7512437701017358,0.7437194953959401,-0.00596236118529303,0.00010821271270722299,0.0,-0.01092682233368314,-0.018451097039478892
472.0,2.6271186440677967,0.753764289482538,0.7592732836325284,0.7595880220301219,0.7488198952404586,0.7407935652743143,-0.0058237325475838375,-0.00031473839759343925,0.0,-0.010768126789663324,-0.018794456755807598
476.0,2.6050420168067228,0.751491778073492,0.7576127573051328,0.7579792952089324,0.7465458955639019,0.7383215906191034,-0.006487517135440379,-0.00036653790379959084,0.0,-0.011433399645030429,-0.01965770458982896
480.0,2.5833333333333335,0.7500907138237523,0.7564540774227431,0.7566321093588657,0.744885160494297,0.7371518446321161,-0.006541395535113459,-0.00017803193612264678,0.0,-0.01174694886456873,-0.019480264726749574
484.0,2.56198347107438,0.749327514493652,0.756045124603858,0.7560131140910964,0.744101440565655,0.7365952908113547,-0.006685599597444414,3.201051276158218e-05,0.0,-0.011911673525441424,-0.01941782327974173
488.0,2.540983606557377,0.750162804294024,0.7558414095924819,0.7561861793070443,0.7440649891759648,0.7357790778979674,-0.0060233750130203045,-0.00034476971456243177,0.0,-0.012121190131079596,-0.020407101409076978
492.0,2.5203252032520327,0.75117704473011,0.7563570241925828,0.757070978933932,0.7444680214901183,0.7345708882874231,-0.005893934203822004,-0.0007139547413492764,0.0,-0.01260295744381379,-0.02250009064650893
496.0,2.5,0.752751123270869,0.7574813912043854,0.7581692609509716,0.7455657114381407,0.7347384292794241,-0.005418137680102575,-0.0006878697465861894,0.0,-0.012603549512830936,-0.02343083167154747
500.0,2.48,0.7545040134992387,0.7592630883029785,0.7598584298201367,0.7467473732999714,0.7361268529372536,-0.005354416320898059,-0.0005953415171582321,0.0,-0.01311105652016531,-0.023731576882883187
504.0,2.4603174603174605,0.7567112641248344,0.7613504870946375,0.7617790176851189,0.748437193659456,0.7380404175535451,-0.005067753560284549,-0.00042853059048142406,0.0,-0.013341824025662863,-0.023738600131573806
508.0,2.440944881889764,0.7587815895879937,0.7632743342284745,0.7641252906116578,0.7503269978880098,0.7399766126877749,-0.005343701023664105,-0.0008509563831833322,0.0,-0.013798292723647965,-0.024148677923882866
512.0,2.421875,0.7609699348377243,0.7651562549306348,0.7661795672129943,0.7519988472100321,0.7415774895300287,-0.005209632375269946,-0.001023312282359523,0.0,-0.014180720002962222,-0.02460207768296563
516.0,2.4031007751937983,0.763204362669555,0.7672312643276571,0.7682321035745105,0.7541962666265927,0.7429614493254864,-0.005027740904955502,-0.0010008392468534577,0.0,-0.014035836947917879,-0.025270654249024194
520.0,2.3846153846153846,0.7650256588170234,0.7679927121910715,0.7700921893430843,0.7558746509313359,0.7444506506697057,-0.005066530526060875,-0.002099477152012863,0.0,-0.014217538411748443,-0.025641538673378594
524.0,2.366412213740458,0.766331598747332,0.7687040673152659,0.7715006743108199,0.7573600850303044,0.7457775071073804,-0.0051690755634878904,-0.002796606995554063,0.0,-0.014140589280515536,-0.02572316720343948
528.0,2.3484848484848486,0.7675793155058008,0.7700222369126262,0.7727127304692261,0.758946381601836,0.7471661304295951,-0.005133414963425231,-0.0026904935565998933,0.0,-0.013766348867390032,-0.02554660003963094
532.0,2.330827067669173,0.7693892629633452,0.7710845670719386,0.7742931342389556,0.760394101766513,0.7485968284707041,-0.0049038712756104275,-0.003208567167017007,0.0,-0.013899032472442618,-0.02569630576825155
536.0,2.3134328358208953,0.7711947306659734,0.7727983358007007,0.7758327214236582,0.7625470066659674,0.7508756500776834,-0.0046379907576847845,-0.003034385622957547,0.0,-0.013285714757690803,-0.0249570713459748
540.0,2.2962962962962963,0.7733237343273911,0.7748870235395335,0.7778613917353114,0.7639842782070614,0.7529781895328549,-0.004537657407920337,-0.002974368195777899,0.0,-0.013877113528250051,-0.024883202202456545
544.0,2.2794117647058822,0.7748058379285245,0.7770089687340729,0.7797458284328824,0.765633492332108,0.7560735026928267,-0.004939990504357894,-0.002736859698809546,0.0,-0.014112336100774447,-0.023672325740055733
548.0,2.2627737226277373,0.7771150069122224,0.7793450566839899,0.7817395313723425,0.7677454882449748,0.7592696021751963,-0.004624524460120183,-0.0023944746883526324,0.0,-0.013994043127367739,-0.022469929197146188
552.0,2.246376811594203,0.779700387969426,0.7814719623342494,0.7838748602878056,0.7699658097807418,0.7606473211180713,-0.004174472318379641,-0.0024028979535561934,0.0,-0.013909050507063814,-0.0232275391697343
556.0,2.2302158273381294,0.78145981623714,0.7839863122608504,0.7860563906073581,0.7717291712587682,0.7619480571484696,-0.004596574370218098,-0.002070078346507742,0.0,-0.014327219348589937,-0.02410833345888852
560.0,2.2142857142857144,0.7832015652798479,0.7858811866937507,0.7880844800941744,0.7736497968430522,0.7636170838639291,-0.004882914814326567,-0.0022032934004236893,0.0,-0.014434683251122182,-0.024467396230245297
564.0,2.198581560283688,0.7850038281147715,0.7877120044705435,0.7893943182417071,0.775145751206541,0.7647914753835108,-0.004390490126935598,-0.0016823137711636793,0.0,-0.014248567035166193,-0.02460284285819636
568.0,2.183098591549296,0.7865972787883848,0.789188118188231,0.7902503749209506,0.7764322090872289,0.7662676554709187,-0.003653096132565814,-0.0010622567327196464,0.0,-0.013818165833721752,-0.023982719450031942
572.0,2.167832167832168,0.7879635379918861,0.7904676777733057,0.7915550976255297,0.7771140498212294,0.7670402423811187,-0.0035915596336435485,-0.0010874198522239364,0.0,-0.014441047804300222,-0.024514855244410994
576.0,2.1527777777777777,0.786567273761235,0.7895699241576113,0.7908028926879738,0.7764092776355012,0.7651720170473044,-0.004235618926738738,-0.0012329685303624771,0.0,-0.014393615052472608,-0.02563087564066935
580.0,2.1379310344827585,0.7882918943881521,0.790689063661858,0.792045501604816,0.7777770157652455,0.7667937989801166,-0.0037536072166639567,-0.001356437942958033,0.0,-0.014268485839570522,-0.025251702624699446
584.0,2.1232876712328768,0.7894514217442536,0.7915264607100134,0.7929139923917996,0.7783994991289185,0.7679008048615787,-0.0034625706475459594,-0.0013875316817861805,0.0,-0.014514493262881123,-0.02501318753022086
588.0,2.108843537414966,0.7882496930440588,0.7906010576480405,0.7916420281849346,0.7766912489667768,0.7658419771971725,-0.0033923351408757796,-0.0010409705368941147,0.0,-0.014950779218157795,-0.025800050987762058
592.0,2.0945945945945947,0.7872741624541113,0.7893221267583739,0.790992456775585,0.7757488630442129,0.765309353119878,-0.0037182943214737474,-0.0016703300172111746,0.0,-0.015243593731372185,-0.02568310365570703
596.0,2.0805369127516777,0.7874646728339747,0.7900112899171283,0.7911838824039927,0.7755830777354347,0.7661316061832013,-0.003719209570018034,-0.00117259248686441,0.0,-0.015600804668558066,-0.025052276220791425
600.0,2.066666666666667,0.7857623040684301,0.7887396898974601,0.7896285518517556,0.7738264611090233,0.7644660406433654,-0.0038662477833255604,-0.0008888619542954945,0.0,-0.01580209074273231,-0.025162511208390193
604.0,2.052980132450331,0.7848967400116562,0.7879141686542279,0.7882720386700741,0.772955066711801,0.7633297987820129,-0.0033752986584179023,-0.0003578700158461956,0.0,-0.015316971958273085,-0.024942239888061213
608.0,2.039473684210526,0.785190484186074,0.7884394293551047,0.7886184292928788,0.7730688608913947,0.7635038293614214,-0.003427945106804886,-0.00017899993777414913,0.0,-0.015549568401484137,-0.025114599931457482
612.0,2.026143790849673,0.7840976459322027,0.7870243142136029,0.7873708364225789,0.7718655677130704,0.762260416726682,-0.003273190490376221,-0.00034652220897601893,0.0,-0.015505268709508524,-0.02511041969589689
616.0,2.012987012987013,0.7819735159083685,0.7851680666481109,0.7838663673015231,0.7699034527063688,0.7602226611908209,-0.0018928513931546487,0.001301699346587748,0.0,-0.013962914595154308,-0.02364370611070221
620.0,2.0,0.7819338517224095,0.7849829605048284,0.782879903630846,0.7694361317988545,0.7595845482598966,-0.0009460519084365515,0.0021030568739823785,0.0,-0.013443771831991524,-0.0232953553709494
624.0,1.9871794871794872,0.7817873434741942,0.7846123597026375,0.7827595469952677,0.7695347794178198,0.7593976857771516,-0.0009722035210735225,0.0018528127073698109,0.0,-0.013224767577447949,-0.02336186121811612
628.0,1.9745222929936306,0.7812122669390684,0.7840342151380757,0.7817698699686351,0.7686021564124703,0.7590974112129376,-0.0005576030295666445,0.002264345169440629,0.0,-0.01316771355616475,-0.022672458755697456
632.0,1.9620253164556962,0.7811728301285319,0.7843492355591408,0.7813850581114947,0.7683395921476213,0.7595755202950836,-0.00021222798296283152,0.002964177447646099,0.0,-0.01304546596387346,-0.02180953781641115
636.0,1.949685534591195,0.7824294506877565,0.7849076716312469,0.7818917541844557,0.7687710574564064,0.7596706846494137,0.0005376965033008219,0.0030159174467911942,0.0,-0.013120696728049275,-0.022221069535041993
640.0,1.9375,0.7811861789437191,0.7842824758715676,0.7809784433636158,0.7680342549773276,0.7592995199980979,0.00020773558010334092,0.0033040325079518595,0.0,-0.012944188386288191,-0.02167892336551791
644.0,1.9254658385093169,0.7801640723767116,0.7820660371981287,0.7800060623636322,0.7673310331183836,0.7580198762025097,0.00015801001307935714,0.002059974834496492,0.0,-0.012675029245248659,-0.02198618616112258
648.0,1.9135802469135803,0.7800750360376001,0.7820524297748699,0.7803051244205297,0.7676080096997457,0.7578096972259536,-0.0002300883829295941,0.0017473053543402006,0.0,-0.012697114720783942,-0.02249542719457609
652.0,1.901840490797546,0.7805508399852092,0.782151154009928,0.7799066280337872,0.767747482616463,0.758277500453326,0.0006442119514220579,0.0022445259761407765,0.0,-0.012159145417324213,-0.021629127580461205
656.0,1.8902439024390243,0.7794394648272931,0.7809453016581511,0.778791512459752,0.7669425349812726,0.7575007511702101,0.0006479523675411158,0.0021537891983991475,0.0,-0.01184897747847935,-0.021290761289541882
660.0,1.878787878787879,0.7780859459672584,0.7795678130061705,0.777379918631333,0.7655430613397662,0.755731481339377,0.0007060273359253966,0.0021878943748374624,0.0,-0.011836857291566805,-0.02164843729195609
664.0,1.8674698795180722,0.7779806325509178,0.7792730077822299,0.7770885509742871,0.765189672893215,0.7555340482515269,0.0008920815766306767,0.0021844568079427695,0.0,-0.01189887808107204,-0.02155450272276016
668.0,1.8562874251497006,0.7781409309815321,0.7794194053787558,0.7770464126210808,0.7652349235934841,0.7560170179456382,0.0010945183604513797,0.0023729927576749965,0.0,-0.011811489027596656,-0.021029394675442514
672.0,1.8452380952380953,0.7767901594546884,0.778413434936881,0.7759435220345785,0.7639440677555751,0.7554589002480121,0.0008466374201099303,0.0024699129023024735,0.0,-0.011999454279003396,-0.020484621786566404
676.0,1.834319526627219,0.7746739682587549,0.7763149691006219,0.7719855775910174,0.7615666145376923,0.7533307947450709,0.002688390667737517,0.004329391509604541,0.0,-0.010418963053325125,-0.01865478284594646
680.0,1.8235294117647058,0.7729471675024311,0.7748898856995741,0.7705810306466794,0.7593447996231535,0.7509491297532356,0.0023661368557517104,0.004308855052894689,0.0,-0.011236231023525889,-0.0196319008934438
684.0,1.8128654970760234,0.7722392745194524,0.7740539481430133,0.7698071063744449,0.7582730465316285,0.7507514289109283,0.002432168145007463,0.004246841768568377,0.0,-0.011534059842816413,-0.019055677463516663
688.0,1.802325581395349,0.771093004782105,0.773151781686642,0.7684121787433034,0.7570721530657978,0.7498395116404277,0.002680826038801598,0.004739602943338639,0.0,-0.011340025677505583,-0.01857266710287564
692.0,1.7919075144508672,0.7688513304976294,0.7709755637851008,0.7664603569480748,0.7550255668308994,0.7477712934799445,0.0023909735495546425,0.004515206837025998,0.0,-0.011434790117175408,-0.018689063468130263
696.0,1.7816091954022988,0.7662680015747332,0.7685314020012539,0.7641672346835977,0.7523083881165364,0.7455175643352687,0.002100766891135475,0.004364167317656209,0.0,-0.011858846567061265,-0.018649670348328984
700.0,1.7714285714285714,0.7642140126734329,0.7664392264618864,0.7622502504804036,0.750529913557231,0.7432653378703895,0.0019637621930292948,0.004188975981482823,0.0,-0.011720336923172647,-0.018984912610014115
704.0,1.7613636363636365,0.7629033385325972,0.7652127330238896,0.7612888244641363,0.7491757308743914,0.7414103503661817,0.001614514068460915,0.003923908559753331,0.0,-0.012113093589744883,-0.019878474097954513
708.0,1.7514124293785311,0.7611281615768903,0.7635650111159982,0.7594659800567594,0.7475470918583944,0.7390426362149143,0.0016621815201309786,0.004099031059238811,0.0,-0.011918888198364952,-0.020423343841845076
712.0,1.7415730337078652,0.7583289510750795,0.760913944040037,0.7567518986910735,0.7451687671506009,0.7364497617698109,0.0015770523840059614,0.004162045348963472,0.0,-0.011583131540472635,-0.020302136921262592
716.0,1.7318435754189945,0.7554363786545251,0.7584824656155473,0.7551518391236685,0.7425199452866995,0.7338252586398535,0.000284539530856609,0.003330626491878874,0.0,-0.012631893836968944,-0.021326580483814972
720.0,1.7222222222222223,0.7534295271795168,0.7566799703719538,0.7530815999362732,0.7408410124016183,0.7316325857070998,0.00034792724324361757,0.0035983704356805646,0.0,-0.012240587534654956,-0.021449014229173446
724.0,1.712707182320442,0.752443530960373,0.7553630428555522,0.751522801186389,0.7394122494903106,0.7305326486534729,0.0009207297739839415,0.0038402416691631913,0.0,-0.012110551696078442,-0.02099015253291614
728.0,1.7032967032967032,0.7510653118908726,0.7537606543095539,0.750250610752808,0.7379446269879713,0.7294108157635508,0.0008147011380645885,0.00351004355674589,0.0,-0.012305983764836714,-0.020839794989257143
732.0,1.6939890710382515,0.748778842660788,0.7519347718067129,0.7487662781397051,0.7361976727144859,0.7281524293012536,1.2564521082891744e-05,0.003168493667007777,0.0,-0.012568605425219204,-0.02061384883845152
736.0,1.684782608695652,0.7462645077489289,0.7500285078037334,0.7465475475241463,0.7344458444974133,0.7263031896580805,-0.0002830397752173752,0.0034809602795871086,0.0,-0.012101703026732968,-0.02024435786606582
740.0,1.6756756756756757,0.7440201451515613,0.7483591957226934,0.7448903489169751,0.7332410340181621,0.7248713465246299,-0.0008702037654138017,0.0034688468057182398,0.0,-0.011649314898813046,-0.02001900239234522
744.0,1.6666666666666667,0.7434446459385256,0.7476868545911437,0.7436767075614579,0.7326586704581821,0.7247839420952087,-0.00023206162293232246,0.004010147029685829,0.0,-0.011018037103275757,-0.018892765466249184
748.0,1.6577540106951871,0.7430786005563701,0.7470492697762732,0.7431020068143281,0.732162474061741,0.7241687032315434,-2.3406257958047405e-05,0.003947262961945031,0.0,-0.010939532752587189,-0.018933303582784777
752.0,1.648936170212766,0.7418820861134334,0.745926321088122,0.7424019740019299,0.7312320692520584,0.7233461671376007,-0.0005198878884964397,0.0035243470861920922,0.0,-0.011169904749871451,-0.019055806864329172
756.0,1.6402116402116402,0.7410145752752879,0.7448820106909753,0.7411112904451136,0.7302767882239947,0.7219538355057045,-9.671516982567852e-05,0.0037707202458616695,0.0,-0.010834502221118925,-0.019157454939409124
760.0,1.631578947368421,0.7401305532348117,0.7435544829415992,0.7399476076043514,0.7291197189395986,0.7205728897347854,0.000182945630460285,0.0036068753372477946,0.0,-0.010827888664752816,-0.019374717869566016
764.0,1.6230366492146597,0.7395413453326156,0.742801615974398,0.7391353296885073,0.7285850753042162,0.7194620180935511,0.00040601564410835955,0.0036662862858907186,0.0,-0.010550254384291025,-0.01967331159495611
768.0,1.6145833333333333,0.7396245112130899,0.7426736666843707,0.7396572568357607,0.7285762997060521,0.7190290373267207,-3.2745622670748986e-05,0.0030164098486100688,0.0,-0.01108095712970858,-0.020628219509039925
772.0,1.6062176165803108,0.7395262130277567,0.7428314374085805,0.7404620021078689,0.7289277762070174,0.719137513435155,-0.0009357890801122704,0.002369435300711542,0.0,-0.011534225900851514,-0.02132448867271397
